#
# Case 3
# Steady-state, laterally averaged profiles calculated with YACC and shown in Figure 3
# The five columns refer to 
# Depth, Temperature, Viscosity, RMS Velocity, Second invariant of the stress tensor
# 
 1.00000e+00  1.00000e+00  1.00000e-04  1.46291e+02  8.53755e-02
 9.90099e-01  9.70671e-01  1.39572e-04  1.45390e+02  1.26462e-01
 9.80198e-01  9.42873e-01  1.97553e-04  1.43190e+02  1.94477e-01
 9.70297e-01  9.17823e-01  2.74560e-04  1.40799e+02  2.70445e-01
 9.60396e-01  8.96265e-01  3.63958e-04  1.38564e+02  3.45447e-01
 9.50495e-01  8.78476e-01  4.53381e-04  1.36552e+02  4.08836e-01
 9.40594e-01  8.64369e-01  5.30492e-04  1.34744e+02  4.52980e-01
 9.30693e-01  8.53631e-01  5.87773e-04  1.33094e+02  4.76251e-01
 9.20792e-01  8.45837e-01  6.23395e-04  1.31555e+02  4.81766e-01
 9.10891e-01  8.40532e-01  6.39448e-04  1.30083e+02  4.74477e-01
 9.00990e-01  8.37279e-01  6.39790e-04  1.28641e+02  4.59070e-01
 8.91089e-01  8.35676e-01  6.28591e-04  1.27198e+02  4.39127e-01
 8.81188e-01  8.35371e-01  6.09593e-04  1.25727e+02  4.17070e-01
 8.71287e-01  8.36056e-01  5.85850e-04  1.24206e+02  3.94407e-01
 8.61386e-01  8.37470e-01  5.59690e-04  1.22618e+02  3.72012e-01
 8.51485e-01  8.39391e-01  5.32793e-04  1.20948e+02  3.50351e-01
 8.41584e-01  8.41638e-01  5.06308e-04  1.19186e+02  3.29639e-01
 8.31683e-01  8.44063e-01  4.80962e-04  1.17326e+02  3.09946e-01
 8.21782e-01  8.46549e-01  4.57180e-04  1.15362e+02  2.91264e-01
 8.11881e-01  8.49006e-01  4.35163e-04  1.13294e+02  2.73539e-01
 8.01980e-01  8.51369e-01  4.14968e-04  1.11124e+02  2.56699e-01
 7.92079e-01  8.53590e-01  3.96560e-04  1.08857e+02  2.40663e-01
 7.82178e-01  8.55640e-01  3.79844e-04  1.06497e+02  2.25354e-01
 7.72277e-01  8.57500e-01  3.64700e-04  1.04055e+02  2.10693e-01
 7.62376e-01  8.59162e-01  3.50994e-04  1.01541e+02  1.96611e-01
 7.52475e-01  8.60627e-01  3.38589e-04  9.89661e+01  1.83046e-01
 7.42574e-01  8.61900e-01  3.27358e-04  9.63466e+01  1.69942e-01
 7.32673e-01  8.62990e-01  3.17180e-04  9.36994e+01  1.57256e-01
 7.22772e-01  8.63911e-01  3.07945e-04  9.10459e+01  1.44955e-01
 7.12871e-01  8.64676e-01  2.99556e-04  8.84130e+01  1.33031e-01
 7.02970e-01  8.65298e-01  2.91926e-04  8.58362e+01  1.21523e-01
 6.93069e-01  8.65794e-01  2.84981e-04  8.33648e+01  1.10662e-01
 6.83168e-01  8.66178e-01  2.78656e-04  8.10712e+01  1.02533e-01
 6.73267e-01  8.66462e-01  2.72896e-04  7.90641e+01  1.00117e-01
 6.63366e-01  8.66660e-01  2.67657e-04  7.75035e+01  1.00405e-01
 6.53465e-01  8.66783e-01  2.62901e-04  7.65948e+01  1.02481e-01
 6.43564e-01  8.66842e-01  2.58602e-04  7.65340e+01  1.05821e-01
 6.33663e-01  8.66845e-01  2.54738e-04  7.74987e+01  1.10265e-01
 6.23762e-01  8.66801e-01  2.51297e-04  7.91630e+01  1.15440e-01
 6.13861e-01  8.66715e-01  2.48275e-04  8.12141e+01  1.21053e-01
 6.03960e-01  8.66593e-01  2.45674e-04  8.34845e+01  1.27013e-01
 5.94059e-01  8.66437e-01  2.43505e-04  8.58734e+01  1.33259e-01
 5.84158e-01  8.66251e-01  2.41786e-04  8.83173e+01  1.39697e-01
 5.74257e-01  8.66034e-01  2.40544e-04  9.07738e+01  1.46302e-01
 5.64356e-01  8.65785e-01  2.39816e-04  9.32124e+01  1.53077e-01
 5.54455e-01  8.65501e-01  2.39648e-04  9.56097e+01  1.60031e-01
 5.44554e-01  8.65177e-01  2.40098e-04  9.79461e+01  1.67177e-01
 5.34653e-01  8.64805e-01  2.41236e-04  1.00204e+02  1.74532e-01
 5.24752e-01  8.64375e-01  2.43149e-04  1.02367e+02  1.82113e-01
 5.14851e-01  8.63875e-01  2.45936e-04  1.04419e+02  1.89940e-01
 5.04951e-01  8.63288e-01  2.49719e-04  1.06341e+02  1.98035e-01
 4.95050e-01  8.62596e-01  2.54639e-04  1.08115e+02  2.06422e-01
 4.85149e-01  8.61777e-01  2.60864e-04  1.09722e+02  2.15131e-01
 4.75248e-01  8.60805e-01  2.68591e-04  1.11140e+02  2.24197e-01
 4.65347e-01  8.59650e-01  2.78051e-04  1.12344e+02  2.33662e-01
 4.55446e-01  8.58279e-01  2.89515e-04  1.13311e+02  2.43579e-01
 4.45545e-01  8.56656e-01  3.03303e-04  1.14013e+02  2.54017e-01
 4.35644e-01  8.54742e-01  3.19793e-04  1.14422e+02  2.65059e-01
 4.25743e-01  8.52493e-01  3.39433e-04  1.14508e+02  2.76810e-01
 4.15842e-01  8.49865e-01  3.62753e-04  1.14242e+02  2.89400e-01
 4.05941e-01  8.46808e-01  3.90386e-04  1.13594e+02  3.02985e-01
 3.96040e-01  8.43274e-01  4.23087e-04  1.12535e+02  3.17753e-01
 3.86139e-01  8.39210e-01  4.61763e-04  1.11038e+02  3.33941e-01
 3.76238e-01  8.34565e-01  5.07504e-04  1.09078e+02  3.51849e-01
 3.66337e-01  8.29284e-01  5.61628e-04  1.06635e+02  3.71729e-01
 3.56436e-01  8.23313e-01  6.25730e-04  1.03693e+02  3.93645e-01
 3.46535e-01  8.16596e-01  7.01744e-04  1.00242e+02  4.17497e-01
 3.36634e-01  8.09074e-01  7.92029e-04  9.62790e+01  4.43177e-01
 3.26733e-01  8.00686e-01  8.99461e-04  9.18112e+01  4.70702e-01
 3.16832e-01  7.91365e-01  1.02756e-03  8.68562e+01  5.00175e-01
 3.06931e-01  7.81032e-01  1.18065e-03  8.14454e+01  5.31737e-01
 2.97030e-01  7.69603e-01  1.36404e-03  7.56261e+01  5.65552e-01
 2.87129e-01  7.56978e-01  1.58426e-03  6.94650e+01  6.01796e-01
 2.77228e-01  7.43056e-01  1.84940e-03  6.30502e+01  6.40655e-01
 2.67327e-01  7.27735e-01  2.16945e-03  5.64929e+01  6.82308e-01
 2.57426e-01  7.10934e-01  2.55680e-03  4.99248e+01  7.26919e-01
 2.47525e-01  6.92605e-01  3.02687e-03  4.34925e+01  7.74630e-01
 2.37624e-01  6.72752e-01  3.59890e-03  3.73455e+01  8.25556e-01
 2.27723e-01  6.51429e-01  4.29698e-03  3.16211e+01  8.79783e-01
 2.17822e-01  6.28737e-01  5.15137e-03  2.64294e+01  9.37374e-01
 2.07921e-01  6.04817e-01  6.20025e-03  2.18417e+01  9.98381e-01
 1.98020e-01  5.79823e-01  7.49199e-03  1.78864e+01  1.06285e+00
 1.88119e-01  5.53917e-01  9.08813e-03  1.45529e+01  1.13087e+00
 1.78218e-01  5.27250e-01  1.10674e-02  1.17998e+01  1.20254e+00
 1.68317e-01  4.99956e-01  1.35312e-02  9.56577e+00  1.27808e+00
 1.58416e-01  4.72152e-01  1.66107e-02  7.78038e+00  1.35784e+00
 1.48515e-01  4.43932e-01  2.04767e-02  6.37179e+00  1.44235e+00
 1.38614e-01  4.15374e-01  2.53536e-02  5.27241e+00  1.53249e+00
 1.28713e-01  3.86539e-01  3.15382e-02  4.42198e+00  1.62958e+00
 1.18812e-01  3.57476e-01  3.94265e-02  3.76884e+00  1.73568e+00
 1.08911e-01  3.28223e-01  4.95508e-02  3.27005e+00  1.85393e+00
 9.90099e-02  2.98813e-01  6.26342e-02  2.89080e+00  1.98921e+00
 8.91089e-02  2.69268e-01  7.96669e-02  2.60347e+00  2.14909e+00
 7.92079e-02  2.39610e-01  1.02018e-01  2.38653e+00  2.34539e+00
 6.93069e-02  2.09856e-01  1.31596e-01  2.22342e+00  2.59655e+00
 5.94059e-02  1.80021e-01  1.71090e-01  2.10154e+00  2.93107e+00
 4.95049e-02  1.50118e-01  2.24314e-01  2.01137e+00  3.39242e+00
 3.96040e-02  1.20160e-01  2.96727e-01  1.94577e+00  4.04584e+00
 2.97030e-02  9.01579e-02  3.96198e-01  1.89941e+00  4.98836e+00
 1.98020e-02  6.01233e-02  5.34149e-01  1.86845e+00  6.36411e+00
 9.90099e-03  3.00670e-02  7.27255e-01  1.85028e+00  8.38891e+00
 0.00000e+00  0.00000e+00  1.00000e+00  1.84360e+00  1.14056e+01
