#
# Case 1
# Steady-state, laterally averaged profiles calculated with YACC and shown in Figure 1
# The five columns refer to 
# Depth, Temperature, Viscosity, RMS Velocity, Second invariant of the stress tensor
# 
 1.00000e+00  1.00000e+00  1.00000e-05  4.14031e+02  2.76058e-02
 9.90099e-01  9.67201e-01  1.50710e-05  4.11669e+02  4.67964e-02
 9.80198e-01  9.39929e-01  2.17703e-05  4.05518e+02  7.27730e-02
 9.70297e-01  9.19900e-01  2.79058e-05  3.98571e+02  8.91991e-02
 9.60396e-01  9.06055e-01  3.23671e-05  3.91470e+02  9.57725e-02
 9.50495e-01  8.96877e-01  3.53203e-05  3.84349e+02  9.75333e-02
 9.40594e-01  8.91223e-01  3.70948e-05  3.77192e+02  9.73505e-02
 9.30693e-01  8.88258e-01  3.79331e-05  3.69943e+02  9.62541e-02
 9.20792e-01  8.87309e-01  3.80455e-05  3.62537e+02  9.46384e-02
 9.10891e-01  8.87798e-01  3.76368e-05  3.54921e+02  9.27122e-02
 9.00990e-01  8.89242e-01  3.68965e-05  3.47061e+02  9.06131e-02
 8.91089e-01  8.91245e-01  3.59841e-05  3.38939e+02  8.84357e-02
 8.81188e-01  8.93501e-01  3.50206e-05  3.30556e+02  8.62434e-02
 8.71287e-01  8.95787e-01  3.40891e-05  3.21929e+02  8.40759e-02
 8.61386e-01  8.97950e-01  3.32399e-05  3.13086e+02  8.19555e-02
 8.51485e-01  8.99896e-01  3.24988e-05  3.04064e+02  7.98925e-02
 8.41584e-01  9.01577e-01  3.18741e-05  2.94908e+02  7.78895e-02
 8.31683e-01  9.02980e-01  3.13629e-05  2.85663e+02  7.59455e-02
 8.21782e-01  9.04116e-01  3.09557e-05  2.76378e+02  7.40577e-02
 8.11881e-01  9.05008e-01  3.06395e-05  2.67098e+02  7.22238e-02
 8.01980e-01  9.05689e-01  3.04004e-05  2.57872e+02  7.04426e-02
 7.92079e-01  9.06196e-01  3.02243e-05  2.48745e+02  6.87145e-02
 7.82178e-01  9.06563e-01  3.00986e-05  2.39767e+02  6.70417e-02
 7.72277e-01  9.06820e-01  3.00122e-05  2.30988e+02  6.54279e-02
 7.62376e-01  9.06994e-01  2.99562e-05  2.22472e+02  6.38785e-02
 7.52475e-01  9.07107e-01  2.99230e-05  2.14294e+02  6.24007e-02
 7.42574e-01  9.07174e-01  2.99072e-05  2.06552e+02  6.10048e-02
 7.32673e-01  9.07210e-01  2.99046e-05  1.99378e+02  5.97077e-02
 7.22772e-01  9.07222e-01  2.99123e-05  1.92957e+02  5.85404e-02
 7.12871e-01  9.07218e-01  2.99281e-05  1.87559e+02  5.75711e-02
 7.02970e-01  9.07203e-01  2.99507e-05  1.83626e+02  5.69729e-02
 6.93069e-01  9.07179e-01  2.99792e-05  1.82143e+02  5.67366e-02
 6.83168e-01  9.07150e-01  3.00129e-05  1.84166e+02  5.67180e-02
 6.73267e-01  9.07118e-01  3.00513e-05  1.88081e+02  5.68309e-02
 6.63366e-01  9.07087e-01  3.00937e-05  1.92907e+02  5.70326e-02
 6.53465e-01  9.07059e-01  3.01396e-05  1.98149e+02  5.72986e-02
 6.43564e-01  9.07039e-01  3.01884e-05  2.03519e+02  5.76133e-02
 6.33663e-01  9.07031e-01  3.02391e-05  2.08844e+02  5.79668e-02
 6.23762e-01  9.07041e-01  3.02910e-05  2.14014e+02  5.83530e-02
 6.13861e-01  9.07073e-01  3.03433e-05  2.18961e+02  5.87693e-02
 6.03960e-01  9.07133e-01  3.03956e-05  2.23634e+02  5.92168e-02
 5.94059e-01  9.07226e-01  3.04477e-05  2.28002e+02  5.97001e-02
 5.84158e-01  9.07356e-01  3.05001e-05  2.32040e+02  6.02281e-02
 5.74257e-01  9.07525e-01  3.05541e-05  2.35731e+02  6.08134e-02
 5.64356e-01  9.07734e-01  3.06119e-05  2.39060e+02  6.14730e-02
 5.54455e-01  9.07983e-01  3.06770e-05  2.42017e+02  6.22281e-02
 5.44554e-01  9.08270e-01  3.07538e-05  2.44591e+02  6.31036e-02
 5.34653e-01  9.08588e-01  3.08488e-05  2.46773e+02  6.41282e-02
 5.24752e-01  9.08932e-01  3.09699e-05  2.48554e+02  6.53339e-02
 5.14851e-01  9.09290e-01  3.11274e-05  2.49926e+02  6.67567e-02
 5.04951e-01  9.09648e-01  3.13340e-05  2.50876e+02  6.84388e-02
 4.95050e-01  9.09989e-01  3.16057e-05  2.51395e+02  7.04259e-02
 4.85149e-01  9.10290e-01  3.19624e-05  2.51468e+02  7.27494e-02
 4.75248e-01  9.10522e-01  3.24285e-05  2.51080e+02  7.54302e-02
 4.65347e-01  9.10651e-01  3.30341e-05  2.50212e+02  7.84907e-02
 4.55446e-01  9.10638e-01  3.38163e-05  2.48844e+02  8.19544e-02
 4.45545e-01  9.10434e-01  3.48207e-05  2.46950e+02  8.58456e-02
 4.35644e-01  9.09987e-01  3.61030e-05  2.44505e+02  9.01901e-02
 4.25743e-01  9.09236e-01  3.77325e-05  2.41481e+02  9.50172e-02
 4.15842e-01  9.08116e-01  3.97944e-05  2.37851e+02  1.00362e-01
 4.05941e-01  9.06557e-01  4.23948e-05  2.33588e+02  1.06269e-01
 3.96040e-01  9.04488e-01  4.56662e-05  2.28670e+02  1.12791e-01
 3.86139e-01  9.01835e-01  4.97751e-05  2.23081e+02  1.19998e-01
 3.76238e-01  8.98527e-01  5.49316e-05  2.16810e+02  1.27974e-01
 3.66337e-01  8.94494e-01  6.14030e-05  2.09859e+02  1.36832e-01
 3.56436e-01  8.89671e-01  6.95301e-05  2.02236e+02  1.46725e-01
 3.46535e-01  8.83997e-01  7.97504e-05  1.93957e+02  1.57912e-01
 3.36634e-01  8.77415e-01  9.26271e-05  1.85048e+02  1.70486e-01
 3.26733e-01  8.69872e-01  1.08888e-04  1.75538e+02  1.84519e-01
 3.16832e-01  8.61319e-01  1.29478e-04  1.65463e+02  2.00139e-01
 3.06931e-01  8.51705e-01  1.55624e-04  1.54864e+02  2.17498e-01
 2.97030e-01  8.40978e-01  1.88926e-04  1.43788e+02  2.36758e-01
 2.87129e-01  8.29080e-01  2.31478e-04  1.32296e+02  2.58087e-01
 2.77228e-01  8.15939e-01  2.86022e-04  1.20465e+02  2.81663e-01
 2.67327e-01  8.01464e-01  3.56164e-04  1.08393e+02  3.07675e-01
 2.57426e-01  7.85534e-01  4.46648e-04  9.62150e+01  3.36324e-01
 2.47525e-01  7.68007e-01  5.63743e-04  8.41026e+01  3.67822e-01
 2.37624e-01  7.48731e-01  7.15738e-04  7.22703e+01  4.02373e-01
 2.27723e-01  7.27587e-01  9.13627e-04  6.09666e+01  4.40160e-01
 2.17822e-01  7.04525e-01  1.17203e-03  5.04515e+01  4.81323e-01
 2.07921e-01  6.79595e-01  1.51046e-03  4.09609e+01  5.25955e-01
 1.98020e-01  6.52943e-01  1.95506e-03  3.26669e+01  5.74098e-01
 1.88119e-01  6.24788e-01  2.54094e-03  2.56505e+01  6.25757e-01
 1.78218e-01  5.95379e-01  3.31554e-03  1.98954e+01  6.80913e-01
 1.68317e-01  5.64960e-01  4.34321e-03  1.53052e+01  7.39556e-01
 1.58416e-01  5.33751e-01  5.71166e-03  1.17323e+01  8.01721e-01
 1.48515e-01  5.01933e-01  7.54113e-03  9.00829e+00  8.67548e-01
 1.38614e-01  4.69649e-01  9.99755e-03  6.96701e+00  9.37353e-01
 1.28713e-01  4.37008e-01  1.33114e-02  5.45889e+00  1.01175e+00
 1.18812e-01  4.04091e-01  1.78052e-02  4.35748e+00  1.09185e+00
 1.08911e-01  3.70960e-01  2.39342e-02  3.56045e+00  1.17956e+00
 9.90099e-02  3.37657e-01  3.23462e-02  2.98771e+00  1.27812e+00
 8.91089e-02  3.04217e-01  4.39717e-02  2.57823e+00  1.39303e+00
 7.92079e-02  2.70664e-01  6.01604e-02  2.28656e+00  1.53352e+00
 6.93069e-02  2.37017e-01  8.28892e-02  2.07945e+00  1.71523e+00
 5.94059e-02  2.03293e-01  1.15083e-01  1.93301e+00  1.96430e+00
 4.95049e-02  1.69505e-01  1.61113e-01  1.83021e+00  2.32392e+00
 3.96040e-02  1.35665e-01  2.27574e-01  1.75899e+00  2.86365e+00
 2.97030e-02  1.01784e-01  3.24513e-01  1.71089e+00  3.69337e+00
 1.98020e-02  6.78727e-02  4.67373e-01  1.68001e+00  4.98532e+00
 9.90099e-03  3.39414e-02  6.80081e-01  1.66250e+00  7.01163e+00
 0.00000e+00  0.00000e+00  1.00000e+00  1.65621e+00  1.02241e+01
