#https://www.engineeringtoolbox.com/water-density-specific-weight-d_595.html
#Density (0-100°C at 1 atm, >100 °C at saturation pressure) 

0.1 	0.9998495 	999.85 	1.9400 	62.4186 	8.3441 	9.8052 	62.419 	-0.68
1 	0.9999017 	999.90 	1.9401 	62.4218 	8.3446 	9.8057 	62.422 	-0.50
4 	0.9999749 	999.97 	1.9403 	62.4264 	8.3452 	9.8064 	62.426 	0.003
10 	0.9997000 	999.70 	1.9397 	62.4094 	8.3429 	9.8037 	62.409 	0.88
15 	0.9991026 	999.10 	1.9386 	62.3719 	8.3379 	9.7978 	62.372 	1.51
20 	0.9982067 	998.21 	1.9368 	62.3160 	8.3304 	9.7891 	62.316 	2.07
25 	0.9970470 	997.05 	1.9346 	62.2436 	8.3208 	9.7777 	62.244 	2.57
30 	0.9956488 	995.65 	1.9319 	62.1563 	8.3091 	9.7640 	62.156 	3.03
35 	0.9940326 	994.03 	1.9287 	62.0554 	8.2956 	9.7481 	62.055 	3.45
40 	0.9922152 	992.22 	1.9252 	61.9420 	8.2804 	9.7303 	61.942 	3.84
45 	0.99021 	990.21 	1.9213 	61.8168 	8.2637 	9.7106 	61.817 	4.20
50 	0.98804 	988.04 	1.9171 	61.6813 	8.2456 	9.6894 	61.681 	4.54
55 	0.98569 	985.69 	1.9126 	61.5346 	8.2260 	9.6663 	61.535 	4.86
60 	0.98320 	983.20 	1.9077 	61.3792 	8.2052 	9.6419 	61.379 	5.16
65 	0.98055 	980.55 	1.9026 	61.2137 	8.1831 	9.6159 	61.214 	5.44
70 	0.97776 	977.76 	1.8972 	61.0396 	8.1598 	9.5886 	61.040 	5.71
75 	0.97484 	974.84 	1.8915 	60.8573 	8.1354 	9.5599 	60.857 	5.97
80 	0.97179 	971.79 	1.8856 	60.6669 	8.1100 	9.5300 	60.667 	6.21
85 	0.96861 	968.61 	1.8794 	60.4683 	8.0834 	9.4988 	60.468 	6.44
90 	0.96531 	965.31 	1.8730 	60.2623 	8.0559 	9.4665 	60.262 	6.66
95 	0.96189 	961.89 	1.8664 	60.0488 	8.0274 	9.4329 	60.049 	6.87
